TITLE:  An Experimental Investigation of the Flow through an Axial-Flow Pump
AUTHORS:  Zierke, Straka, and Taylor
JOURNAL PAPER FIGURE(S):  NA
PSU/ARL TR 93-12 FIGURE(S):  30b, 31   
*****************************************************************************
DATA TITLE:   Secondary Velocity Components and Pressure Distributions 49.7% 
	      IGV Chord Axially Downstream of the IGV Trailing Edge
MEASUREMENT TYPE:  rotating 5-hole probe rake survey
MEASUREMENT LOCATION:  49.7% IGV chord axially downstream of the IGV trailing 
		       edge
NOMINAL CONDITIONS:  
  vinf = 35.0 ft/sec
  pref = 43.2 psia
  rho  = 1.932 slugs/ft^3
  rotor rpm  = 260
  rotor tip speed, Utip = 47.6 ft/sec
  volumetric flow coefficient = 1.36
  IGV chord = 6.90 inches
  IGV span  = 10.50 inches
DATA COLUMNS:
  1 -- x location of measurement volume (inches), x = -r * sin(theta)
  2 -- y location of measurement volume (inches), y = r * cos(theta)
  3 -- secondary velocity component in the x direction,
       Vx = -(Vr * sin(theta) + Vt * cos(theta))
  4 -- secondary velocity component in the x direction,
       Vt = Vr * cos(theta) - Vt * sin(theta)
  5 -- static pressure coefficient, Cps = (psta - pref)/(0.5*rho*vinf^2)
  6 -- total pressure coefficient, Cpt = (ptot - pref)/(0.5*rho*vinf^2)
*****************************************************************************
-0.030800       20.495970       0.030840        -0.031410       -0.088596       0.780217        
-0.164080       20.495338       0.045200        -0.026200       -0.094773       0.758983        
-0.297400       20.493839       0.061420        -0.008270       -0.078996       0.798787        
-0.430700       20.491468       0.065730        0.008420        -0.065901       0.909097        
-0.563950       20.488239       0.064150        0.016910        -0.060075       0.981194        
-0.697210       20.484129       0.057990        0.021630        -0.059354       1.001946        
-0.830440       20.479170       0.049270        0.023760        -0.052677       1.003648        
-0.963630       20.473330       0.040980        0.024490        -0.052788       1.006552        
-1.096750       20.466629       0.034980        0.025450        -0.050975       1.009474        
-1.229860       20.459059       0.028540        0.025000        -0.046000       1.007773        
-1.362910       20.450628       0.024480        0.023520        -0.039803       1.004850        
-1.495920       20.441330       0.020850        0.021920        -0.040284       1.006312        
-1.628810       20.431170       0.017190        0.020770        -0.045019       1.002427        
-1.761680       20.420149       0.014390        0.019250        -0.043817       1.004980        
-1.894470       20.408249       0.012950        0.018320        -0.040044       1.002557        
-2.027150       20.395498       0.010440        0.018260        -0.041986       1.006922        
-2.159770       20.381889       0.008540        0.018040        -0.038953       1.001706        
-2.292310       20.367399       0.005970        0.015710        -0.040044       1.000966        
-2.424710       20.352070       0.004090        0.012110        -0.045630       1.003759        
-2.557040       20.335869       0.004950        0.011850        -0.047202       0.988593        
-2.689260       20.318800       0.001520        0.010530        -0.060315       1.001946        
-2.821380       20.300879       0.001190        0.009490        -0.064440       0.991866        
-2.953330       20.282099       -0.000740       0.006400        -0.067714       0.997933        
-3.085210       20.262459       0.000880        0.006750        -0.068935       0.974388        
-3.216950       20.241959       -0.000510       0.006340        -0.066512       0.969653        
-3.348510       20.220619       -0.003940       0.004150        -0.066012       0.984579        
-3.479980       20.198408       -0.001850       0.004190        -0.066863       0.967230        
-3.611280       20.175339       -0.004050       0.003280        -0.069304       0.946477        
-3.742450       20.151428       -0.005540       0.002370        -0.068805       0.944905        
-3.873410       20.126659       -0.007630       0.002540        -0.069545       0.943684        
-4.004250       20.101040       -0.008880       0.002550        -0.068935       0.927297        
-4.134920       20.074570       -0.009380       0.001380        -0.067603       0.957408        
-4.265380       20.047249       -0.010120       0.001360        -0.076573       0.938949        
-4.395690       20.019079       -0.009940       0.002770        -0.074761       0.918086        
-4.525810       19.990068       -0.011480       0.000410        -0.072578       0.952914        
-4.655750       19.960209       -0.014480       -0.000460       -0.072819       0.963234        
-4.785450       19.929508       -0.013970       -0.000120       -0.073910       0.966989        
-4.914990       19.897959       -0.016860       -0.003510       -0.078996       0.966619        
-5.044320       19.865568       -0.016280       -0.002550       -0.077313       0.942593        
-5.173400       19.832338       -0.018030       -0.003010       -0.079126       0.960201        
-5.302290       19.798269       -0.017620       -0.003440       -0.079496       0.954005        
-5.430970       19.763359       -0.015230       -0.001240       -0.081549       0.891618        
-5.559370       19.727629       -0.017200       -0.002420       -0.082159       0.908616        
-5.687580       19.691050       -0.013720       0.001700        -0.084952       0.857289        
-5.815550       19.653629       -0.019480       -0.000820       -0.084101       0.887012        
-5.943230       19.615398       -0.016750       0.000400        -0.085082       0.867592        
-6.070700       19.576319       -0.014800       0.001110        -0.084582       0.834835        
-6.197910       19.536419       -0.009760       0.002610        -0.083250       0.797566        
-6.324860       19.495689       -0.009040       -0.000050       -0.081549       0.808497        
-6.451510       19.454149       -0.011760       -0.004600       -0.077313       0.891026        
-6.577920       19.411770       -0.012890       -0.006540       -0.081919       0.883258        
-6.704050       19.368568       -0.014080       -0.006420       -0.071838       0.934954        
-6.829860       19.324570       -0.014720       -0.005800       -0.071598       0.953875        
-6.955420       19.279730       -0.012710       -0.004860       -0.076093       0.943444        
-7.080680       19.234079       -0.012760       -0.002420       -0.076703       0.867351        
-7.205650       19.187609       -0.008580       -0.002220       -0.070507       0.900237        
-7.330270       19.140348       -0.007920       -0.002560       -0.070747       0.897204        
-7.454620       19.092258       -0.005900       -0.001400       -0.073059       0.877302        
-7.578650       19.043369       -0.006050       -0.004300       -0.075242       0.894059        
-7.702370       18.993670       -0.003830       -0.004420       -0.069415       0.872697        
-7.825720       18.943178       -0.002660       -0.005380       -0.072449       0.857030        
-7.948780       18.891869       -0.001700       -0.005010       -0.069785       0.826216        
-8.071500       18.839760       -0.001760       -0.005820       -0.071487       0.822572        
-8.193839       18.786879       0.000440        -0.004780       -0.073059       0.761887        
-8.315880       18.733179       0.004670        -0.003900       -0.077554       0.714445        
-8.437550       18.678690       0.006260        -0.003930       -0.079366       0.655702        
-8.558880       18.623409       0.010000        -0.003830       -0.082030       0.607279        
-8.679799       18.567360       0.008350        -0.006540       -0.082881       0.595516        
-8.800400       18.510509       0.006650        -0.008640       -0.085673       0.571970        
-8.920620       18.452869       0.005600        -0.007470       -0.084582       0.562870        
-9.040429       18.394468       0.006660        -0.002470       -0.073670       0.593684        
-9.159900       18.335270       0.008110        -0.001490       -0.069896       0.650856        
-9.278959       18.275299       0.009030        0.004290        -0.069175       0.642717        
-9.397619       18.214569       0.018910        0.005640        -0.069304       0.685684        
-9.515889       18.153059       0.033400        0.004120        -0.069304       0.726948        
-9.633780       18.090769       0.052170        0.007540        -0.069656       0.739433        
-9.751220       18.027748       0.063680        0.021190        -0.057282       0.804372        
-9.868279       17.963928       0.064100        0.035940        -0.044298       0.896963        
-9.984920       17.899359       0.059050        0.041920        -0.030333       0.980343        
-10.101139      17.834028       0.051260        0.040340        -0.028632       1.005942        
-10.216900      17.767969       0.046780        0.034790        -0.022325       1.009826        
-10.332259      17.701139       0.037850        0.029550        -0.020753       1.011527        
-10.447189      17.633549       0.030050        0.025180        -0.024766       1.010436        
-10.561640      17.565239       0.020740        0.022550        -0.022824       1.010566        
-10.675679      17.496159       0.015690        0.021100        -0.016868       1.005331        
-10.789260      17.426359       0.009260        0.018840        -0.020272       1.006182        
-10.902390      17.355799       0.005090        0.018010        -0.019291       1.003278        
-11.015019      17.284538       0.001850        0.016050        -0.022084       1.006441        
-11.127219      17.212519       -0.000010       0.014920        -0.027670       1.005091        
-11.238950      17.139769       -0.001250       0.015010        -0.024637       0.998062        
-11.350169      17.066330       -0.002210       0.013950        -0.025007       0.993568        
-11.460950      16.992128       -0.002400       0.012660        -0.025487       0.986040        
-11.571230      16.917219       -0.003200       0.009610        -0.033256       0.986521        
-11.681029      16.841599       -0.003810       0.006530        -0.040895       0.987131        
-11.790299      16.765280       -0.005360       0.005690        -0.053268       0.986891        
-11.899110      16.688229       -0.006660       0.005370        -0.049384       0.982766        
-12.007409      16.610479       -0.006890       0.002350        -0.060685       0.980954        
-12.115210      16.532019       -0.005440       0.001150        -0.061647       0.977180        
-12.222449      16.452888       -0.006550       -0.000080       -0.063959       0.988463        
-12.329220      16.373030       -0.005930       -0.000290       -0.066382       0.994900        
-12.435470      16.292479       -0.006600       -0.001590       -0.068935       1.000115        
-12.541149      16.211269       -0.007240       -0.002260       -0.070396       0.999524        
-12.646339      16.129349       -0.007550       -0.003200       -0.071358       0.995510        
-12.750990      16.046749       -0.008950       -0.003870       -0.075612       0.991755        
-12.855069      15.963490       -0.008350       -0.003200       -0.071358       0.995270        
-12.958639      15.879530       -0.009850       -0.005020       -0.070266       0.990165        
-13.061660      15.794900       -0.009930       -0.005430       -0.074631       0.999524        
-13.164089      15.709629       -0.011500       -0.006060       -0.076093       0.995639        
-13.266009      15.623670       -0.011500       -0.004860       -0.073300       0.993568        
-13.367359      15.537040       -0.013980       -0.004460       -0.073910       0.990405        
-13.468109      15.449789       -0.014380       -0.005580       -0.077794       0.980214        
-13.568330      15.361850       -0.014670       -0.006370       -0.082030       0.979862        
-13.667959      15.273270       -0.013560       -0.005100       -0.074520       0.965177        
-13.767019      15.184039       -0.013960       -0.006800       -0.076093       0.976219        
-13.865470      15.094190       -0.013200       -0.006780       -0.080587       0.954967        
-13.963369      15.003679       -0.011700       -0.005640       -0.078645       0.937377        
-14.060659      14.912530       -0.011090       -0.007930       -0.079126       0.947938        
-14.157370      14.820760       -0.014600       -0.009190       -0.078645       0.952673        
-14.253449      14.728379       -0.015700       -0.010820       -0.077665       0.957408        
-14.348960      14.635349       -0.013840       -0.008610       -0.081438       0.934954        
-14.443850      14.541699       -0.013150       -0.009060       -0.076462       0.956077        
-14.538110      14.447459       -0.013020       -0.009640       -0.078996       0.946607        
-14.631780      14.352590       -0.013740       -0.008810       -0.078645       0.937987        
-14.724830      14.257110       -0.014250       -0.009050       -0.082289       0.916144        
-14.817260      14.161030       -0.012220       -0.008530       -0.076943       0.932032        
-14.909039      14.064369       -0.011800       -0.008810       -0.075852       0.941132        
-15.000210      13.967090       -0.010990       -0.010280       -0.076573       0.930700        
-15.090750      13.869220       -0.010560       -0.010540       -0.075482       0.939800        
-15.180619      13.770789       -0.010810       -0.012750       -0.075371       0.959702        
-15.269879      13.671749       -0.010390       -0.011250       -0.073781       0.948549        
-15.358479      13.572140       -0.008860       -0.010870       -0.072079       0.942722        
-15.446440      13.471950       -0.008770       -0.013190       -0.072930       0.943925        
-15.533719      13.371220       -0.007970       -0.011490       -0.073670       0.898794        
-15.620370      13.269890       -0.007840       -0.013030       -0.069785       0.909707        
-15.706360      13.167999       -0.007870       -0.015860       -0.068454       0.928998        
-15.791659      13.065579       -0.008620       -0.016630       -0.071358       0.906914        
-15.876320      12.962580       -0.008800       -0.014510       -0.068935       0.883739        
-15.960299      12.859039       -0.008920       -0.015940       -0.067714       0.876692        
-16.043579      12.754979       -0.009880       -0.015410       -0.070266       0.817726        
-16.126209      12.650350       -0.009500       -0.011880       -0.073189       0.772448        
-16.208158      12.545179       -0.007980       -0.010400       -0.083491       0.712503        
-16.289389      12.439509       -0.002930       -0.008220       -0.085433       0.680468        
-16.369968      12.333289       -0.000740       -0.009720       -0.091740       0.630214        
-16.449839      12.226549       0.002510        -0.010970       -0.087856       0.620152        
-16.529030      12.119280       0.005610        -0.011560       -0.094533       0.617840        
-16.607489      12.011539       0.008360        -0.015680       -0.093331       0.620633        
-16.685280      11.903250       0.011140        -0.015820       -0.096605       0.608981        
-16.762348      11.794470       0.018810        -0.015080       -0.102671       0.596607        
-16.838699      11.685209       0.026710        -0.015990       -0.100008       0.597569        
-16.914349      11.575430       0.033210        -0.014620       -0.106075       0.599640        
-16.989288      11.465170       0.039960        -0.013110       -0.104373       0.629974        
-0.029310       19.508980       -0.011960       -0.044130       -0.013225       1.000726        
-0.156180       19.508369       -0.015260       -0.046430       -0.009951       1.006682        
-0.283080       19.506939       -0.018050       -0.047280       -0.017960       1.002668        
-0.409960       19.504688       -0.022490       -0.049790       -0.019051       1.001817        
-0.536790       19.501610       -0.027280       -0.049380       -0.018441       0.998062        
-0.663640       19.497709       -0.029650       -0.044040       -0.030333       0.968691        
-0.790450       19.492979       -0.029550       -0.034740       -0.024507       0.925244        
-0.917230       19.487419       -0.022700       -0.009690       -0.017849       0.838590        
-1.043940       19.481049       -0.000220       0.020310        -0.006918       0.861525        
-1.170640       19.473839       0.012460        0.038810        0.015648        0.954245        
-1.297280       19.465818       0.013770        0.050120        0.017960        1.001817        
-1.423880       19.456968       0.009490        0.053530        0.018200        1.007403        
-1.550380       19.447300       0.009230        0.051190        0.023305        1.005831        
-1.676850       19.436798       0.010370        0.053980        0.023786        1.008013        
-1.803240       19.425480       0.010770        0.051310        0.023656        1.009715        
-1.929530       19.413340       0.010500        0.047760        0.025118        1.010066        
-2.055770       19.400379       0.010300        0.048650        0.030093        1.012508        
-2.181920       19.386599       0.010610        0.046770        0.029372        1.012008        
-2.307940       19.372000       0.010370        0.045440        0.028891        1.008013        
-2.433910       19.356579       0.010810        0.043680        0.019791        1.008013        
-2.559760       19.340340       0.008580        0.037040        0.015777        1.009104        
-2.685510       19.323278       0.008460        0.031150        0.018681        1.008365        
-2.811110       19.305399       0.009230        0.028720        0.012133        1.010917        
-2.936640       19.286709       0.008060        0.026610        0.008989        1.006552        
-3.062030       19.267199       0.007730        0.023800        0.008619        1.002797        
-3.187260       19.246880       0.008400        0.021960        0.008989        1.001447        
-3.312390       19.225739       0.006840        0.019640        0.009340        1.008124        
-3.437380       19.203789       0.007470        0.018800        0.005956        1.007162        
-3.562230       19.181019       0.006690        0.016390        0.005216        1.006792        
-3.686880       19.157450       0.006850        0.015060        0.011172        1.006552        
-3.811420       19.133059       0.006220        0.015200        0.004125        1.005942        
-3.935800       19.107859       0.005580        0.013390        0.002663        1.005701        
-4.059970       19.081869       0.004640        0.013140        0.002072        1.005331        
-4.184020       19.055050       0.004870        0.011710        0.000370        1.001447        
-4.307870       19.027430       0.004130        0.010150        -0.000240       1.000966        
-4.431550       18.999008       0.003440        0.009320        -0.002312       1.000966        
-4.555010       18.969790       0.003240        0.009100        -0.006437       0.997452        
-4.678310       18.939758       0.002300        0.008900        0.000721        1.000615        
